902.494	669
905.376	659
908.259	679
911.14	661
914.022	696.5
916.9	697.5
919.78	700
922.657	745.5
925.535	775
928.41	806
931.284	989
934.159	1236
937.031	1604
939.903	2068
942.773	2655
945.645	3101.5
948.513	3299
951.381	3303
954.247	3212
957.113	3232
959.978	3250.5
962.842	3242
965.705	3278
968.567	3367.5
971.427	3358.5
974.287	3385
977.146	3377
980.005	3472.5
982.862	3385
985.717	3365
988.572	3336
991.425	3197
994.279	2861
997.132	2369.5
999.982	1896.5
1002.83	1595
1005.68	1403
1008.53	1272
1011.38	1136
1014.22	1079
1017.07	1007
1019.91	922
1022.76	900.5
1025.6	817
1028.44	760
1031.28	682
1034.12	631
1036.96	534
1039.79	498.5
1042.63	428
1045.47	392.5
1048.3	335.5
1051.13	323.5
1053.97	310.5
1056.8	314
1059.63	300
1062.46	303
1065.29	284.5
1068.11	280
1070.94	286.5
1073.77	282.5
1076.59	294
1079.42	275.5
1082.24	279.5
1085.06	297
1087.88	308
1090.7	293
1093.52	293.5
1096.34	281.5
1099.15	284
1101.97	274
1104.78	282
1107.6	273.5
1110.41	270.5
1113.22	278.5
1116.03	270.5
1118.84	279
1121.65	269
1124.46	254
1127.27	272
1130.08	264
1132.88	271
1135.69	260.5
1138.49	250.5
1141.29	264
1144.09	259
1146.89	244.5
1149.69	234
1152.49	251.5
1155.29	239
1158.08	222
1160.88	223
1163.68	231.5
1166.47	241
1169.26	234
1172.05	217
1174.85	225
1177.63	212.5
1180.42	228
1183.21	225
1186	230
1188.78	233
1191.57	226
1194.35	212
1197.14	220
1199.92	224
1202.7	220.5
1205.48	218
1208.26	220.5
1211.04	219.5
1213.82	232.5
1216.59	215
1219.37	223.5
1222.14	244.5
1224.92	231.5
1227.69	216
1230.46	224
1233.23	215
1236	225.5
1238.77	221
1241.54	228
1244.31	217.5
1247.07	225.5
1249.84	230
1252.6	225.5
1255.36	218.5
1258.13	225
1260.89	220
1263.65	216.5
1266.41	222
1269.17	214
1271.92	230.5
1274.68	218.5
1277.43	223
1280.19	215
1282.94	223.5
1285.69	227
1288.45	237.5
1291.2	229
1293.95	227
1296.7	235
1299.44	222.5
1302.19	228.5
1304.94	250.5
1307.68	223
1310.43	238
1313.17	235.5
1315.91	244.5
1318.65	239.5
1321.39	238
1324.13	276.5
1326.87	280
1329.61	275.5
1332.35	317.5
1335.08	327
1337.82	380.5
1340.55	453.5
1343.28	513
1346.01	521.5
1348.75	546
1351.48	521.5
1354.21	499.5
1356.93	436
1359.66	397.5
1362.39	341.5
1365.11	327
1367.84	315
1370.56	283.5
1373.28	288.5
1376	273
1378.73	267
1381.45	261
1384.16	258
1386.88	254
1389.6	241
1392.31	245.5
1395.03	232.5
1397.74	247
1400.46	229.5
1403.17	219.5
1405.88	234
1408.59	236
1411.3	222.5
1414.01	224.5
1416.72	235
1419.42	219
1422.13	234
1424.83	245.5
1427.54	238.5
1430.24	247.5
1432.94	227.5
1435.64	227
1438.34	236.5
1441.04	237.5
1443.74	244.5
1446.44	242.5
1449.14	241
1451.83	242
1454.53	239.5
1457.22	232
1459.91	244
1462.6	240.5
1465.29	242
1467.98	229
1470.67	219.5
1473.36	220
1476.05	226.5
1478.73	205.5
1481.42	208.5
1484.1	215.5
1486.79	210.5
1489.47	210.5
1492.15	208
1494.83	198.5
1497.51	202.5
1500.19	197
1502.87	196.5
1505.55	207
1508.22	200.5
1510.9	191
1513.57	203
1516.24	215.5
1518.92	191.5
1521.59	197.5
1524.26	203
1526.93	197
1529.6	203.5
1532.27	192
1534.93	207.5
1537.6	195.5
1540.26	204
1542.93	210.5
1545.59	214.5
1548.25	193.5
1550.91	206
1553.58	223.5
1556.24	220
1558.89	230
1561.55	213.5
1564.21	221
1566.86	223
1569.52	237
1572.17	271
1574.83	287
1577.48	343.5
1580.13	415.5
1582.78	483
1585.43	614.5
1588.08	846.5
1590.73	1188
1593.37	1381.5
1596.02	1155
1598.66	767.5
1601.31	501.5
1603.95	371
1606.59	310.5
1609.24	262
1611.88	249.5
1614.52	237
1617.15	237
1619.79	242
1622.43	243
1625.06	251.5
1627.7	294
1630.33	278.5
1632.97	256
1635.6	225
1638.23	198.5
1640.86	193
1643.49	194
1646.12	191
1648.75	205.5
1651.37	201
1654	194
1656.62	172.5
1659.25	189
1661.87	179.5
1664.49	176.5
1667.12	184
1669.74	195
1672.36	168
1674.97	173.5
1677.59	186
1680.21	179
1682.82	190
1685.44	179
1688.05	183.5
1690.67	181.5
1693.28	192
1695.89	178.5
1698.5	188
1701.11	178
1703.72	190
1706.33	181
1708.94	187
1711.54	177.5
1714.15	179.5
1716.75	174.5
1719.36	182
1721.96	164
1724.56	169
1727.16	173
1729.76	162.5
1732.36	162
1734.96	166
1737.55	175.5
1740.15	190
1742.75	179
1745.34	178.5
1747.93	178.5
1750.53	167
1753.12	172.5
1755.71	174.5
1758.3	176
1760.89	174.5
1763.48	181
1766.06	152
1768.65	186
1771.24	183.5
1773.82	174.5
1776.41	182.5
1778.99	153
1781.57	186
1784.15	174.5
1786.73	169.5
1789.31	169
1791.89	172
1794.47	176
1797.04	173
1799.62	168.5
1802.19	163
1804.77	167
1807.34	161
1809.91	168.5
1812.48	177
1815.06	174.5
1817.62	157.5
1820.19	167
1822.76	170.5
1825.33	168
1827.9	175
1830.46	174.5
1833.03	163
1835.59	161.5
1838.15	167.5
1840.71	155
1843.27	161.5
1845.83	158.5
1848.39	168.5
1850.95	167.5
1853.51	167.5
1856.06	166.5
1858.62	167.5
1861.17	171
1863.73	166
1866.28	165
1868.83	171.5
1871.38	175.5
1873.94	160.5
1876.48	167.5
1879.03	176.5
1881.58	171
1884.13	160
1886.67	156.5
1889.22	164.5
1891.76	165.5
1894.3	175
1896.85	174
1899.39	163.5
1901.93	175.5
1904.47	180
1907.01	172
1909.55	174
1912.08	161.5
1914.62	160
1917.16	163
1919.69	160
1922.22	174.5
1924.76	163.5
1927.29	167
1929.82	167
1932.35	162
1934.88	155.5
1937.41	166.5
1939.94	163
1942.46	164
1944.99	155.5
1947.51	174
1950.04	162
1952.56	159.5
1955.08	159.5
1957.6	162
1960.12	162.5
1962.64	170.5
1965.16	169.5
1967.68	163.5
1970.2	156
1972.71	159
1975.23	170.5
1977.75	167.5
1980.26	164.5
1982.77	163
1985.28	166.5
1987.79	166.5
1990.3	165
1992.81	158.5
1995.32	169
1997.83	166.5
2000.34	161.5
2002.84	155.5
2005.35	163.5
2007.85	159.5
2010.35	158
2012.86	155.5
2015.36	160
2017.86	163
2020.36	157
2022.86	166
2025.36	172.5
2027.85	176
2030.35	165
2032.85	166.5
2035.34	166.5
2037.84	149.5
2040.33	166.5
2042.82	172.5
2045.31	160
2047.8	157
2050.29	155
2052.78	167
2055.27	161.5
2057.75	154
2060.24	151
2062.73	159
2065.21	150
2067.7	144
2070.18	145.5
2072.66	154.5
2075.14	164.5
2077.62	154
2080.1	165.5
2082.58	149
2085.06	143
2087.53	144.5
2090.01	147.5
2092.48	147
2094.96	153.5
2097.43	157.5
2099.9	148
2102.38	156
2104.85	149.5
2107.32	156.5
2109.79	155.5
2112.25	155.5
2114.72	149
2117.19	142.5
2119.65	154.5
2122.12	139.5
2124.58	158
2127.05	165.5
2129.51	154.5
2131.97	151
2134.43	137.5
2136.89	161
2139.35	139
2141.81	146
2144.26	151.5
2146.72	139
2149.18	164.5
2151.63	153.5
2154.09	153
2156.54	155.5
2158.99	141
2161.44	141.5
2163.89	145.5
2166.34	148.5
2168.79	140
2171.24	150
2173.69	151
2176.13	144
2178.58	139
2181.02	153
2183.47	159
2185.91	139.5
2188.35	148.5
2190.79	146
2193.23	146
2195.67	156
2198.11	154
2200.55	140
2202.99	152.5
2205.42	150
2207.86	138.5
2210.29	145.5
2212.72	148.5
2215.16	145.5
2217.59	147
2220.02	136.5
2222.45	158.5
2224.88	146.5
2227.31	146.5
2229.74	146.5
2232.16	148.5
2234.59	150
2237.02	146
2239.44	162
2241.86	159
2244.29	150.5
2246.71	141.5
2249.13	139.5
2251.55	145.5
2253.97	149.5
2256.39	137
2258.81	150.5
2261.22	146.5
2263.64	155.5
2266.05	142
2268.47	139.5
2270.88	150
2273.3	133.5
2275.71	137
2278.12	136
2280.53	144.5
2282.94	147.5
2285.35	140
2287.76	145
2290.16	146.5
2292.57	143.5
2294.97	134
2297.38	139
2299.78	143
2302.19	146
2304.59	135.5
2306.99	144
2309.39	141.5
2311.79	129
2314.19	140.5
2316.59	153.5
2318.98	136
2321.38	141
2323.77	147
2326.17	133.5
2328.56	148.5
2330.96	144
2333.35	152
2335.74	149
2338.13	153
2340.52	147
2342.91	140
2345.3	143.5
2347.68	150
2350.07	144
2352.46	142
2354.84	142
2357.23	140
2359.61	147.5
2361.99	137.5
2364.37	142.5
2366.75	136
2369.13	139.5
2371.51	141.5
2373.89	139.5
2376.27	132
2378.64	156.5
2381.02	142.5
2383.39	142.5
2385.77	154
2388.14	139.5
2390.51	135
2392.89	133
2395.26	148
2397.63	131
2400	135
2402.36	142.5
2404.73	139.5
2407.1	147.5
2409.46	143
2411.83	142
2414.19	148
2416.56	137.5
2418.92	147.5
2421.28	152
2423.64	147.5
2426	146.5
2428.36	143
2430.72	149.5
2433.08	154
2435.44	151.5
2437.79	158.5
2440.15	159
2442.5	149
2444.86	164
2447.21	172.5
2449.56	181.5
2451.91	203
2454.26	203.5
2456.61	212.5
2458.96	221.5
2461.31	216
2463.66	224.5
2466	215
2468.35	218.5
2470.69	214
2473.04	193.5
2475.38	178.5
2477.72	178.5
2480.07	188.5
2482.41	194
2484.75	183.5
2487.08	184
2489.42	179.5
2491.76	174.5
2494.1	158.5
2496.44	169.5
2498.77	165.5
2501.1	163
2503.44	166
2505.77	159.5
2508.1	161
2510.43	152
2512.76	164
2515.09	159.5
2517.42	163.5
2519.75	164
2522.08	162.5
2524.4	158.5
2526.73	151.5
2529.05	173
2531.38	159.5
2533.7	148
2536.02	157.5
2538.34	156
2540.67	146.5
2542.99	167.5
2545.31	163.5
2547.62	159
2549.94	159
2552.26	163.5
2554.57	168
2556.89	155.5
2559.2	158
2561.52	159.5
2563.83	166
2566.14	159
2568.45	159
2570.76	165
2573.07	143
2575.38	160.5
2577.69	164
2580	149.5
2582.3	162
2584.61	155.5
2586.91	162.5
2589.22	150.5
2591.52	159
2593.82	155.5
2596.13	153
2598.43	146.5
2600.73	169
2603.03	162
2605.32	169
2607.62	167
2609.92	163.5
2612.21	171.5
2614.51	185
2616.8	169.5
2619.1	172
2621.39	182
2623.68	182.5
2625.97	193
2628.27	201.5
2630.56	215
2632.84	216
2635.13	224.5
2637.42	233
2639.71	256
2641.99	269.5
2644.28	292.5
2646.56	297
2648.85	329.5
2651.13	366.5
2653.41	399.5
2655.69	457
2657.97	513
2660.25	561
2662.53	658.5
2664.81	770.5
2667.08	903
2669.36	1069.5
2671.64	1209
2673.91	1379
2676.19	1584.5
2678.46	1752.5
2680.73	1875
2683	1977
2685.27	2045.5
2687.54	2020.5
2689.81	1974.5
2692.08	1854.5
2694.35	1756
2696.62	1593
2698.88	1386.5
2701.15	1246.5
2703.41	1071.5
2705.68	938.5
2707.94	838.5
2710.2	718
2712.46	649
2714.72	574.5
2716.98	500.5
2719.24	460
2721.5	424.5
2723.76	381.5
2726.02	356.5
2728.27	302
2730.53	318.5
2732.78	283.5
2735.04	277.5
2737.29	258.5
2739.54	241.5
2741.79	231.5
2744.04	215
2746.29	210.5
2748.54	196
2750.79	192
2753.04	192.5
2755.29	173.5
2757.53	160.5
2759.78	174
2762.02	177.5
2764.27	181
2766.51	176.5
2768.75	175
2770.99	156
2773.23	156
2775.47	154.5
2777.71	165
2779.95	153
2782.19	149.5
2784.42	154
2786.66	144
2788.9	147.5
2791.13	133
2793.36	148
2795.6	142.5
2797.83	144
2800.06	142
2802.29	124.5
2804.52	140.5
2806.75	143
2808.98	143
2811.2	140
2813.43	130.5
2815.66	136.5
2817.88	137
2820.11	144.5
2822.33	143
2824.55	143
2826.77	136.5
2829	130
2831.22	120
2833.44	135
2835.66	132.5
2837.87	129
2840.09	131.5
2842.31	140.5
2844.52	128.5
2846.74	132
2848.95	136.5
2851.17	144.5
2853.38	141
2855.59	137
2857.8	132
2860.02	145
2862.23	147.5
2864.43	128.5
2866.64	136.5
2868.85	142.5
2871.06	145
2873.26	132
2875.47	133.5
2877.67	134
2879.88	137
2882.08	137
2884.28	136
2886.48	134.5
2888.68	139.5
2890.89	137.5
2893.08	134.5
2895.28	139
2897.48	134.5
2899.68	138.5
2901.87	145.5
2904.07	137.5
2906.26	158
2908.46	141
2910.65	144
2912.84	148.5
2915.04	140
2917.23	156
2919.42	150
2921.6	162
2923.79	157
2925.98	155.5
2928.17	156.5
2930.36	158
2932.54	154.5
2934.73	151
2936.91	147
2939.09	157
2941.28	154
2943.46	159.5
2945.64	162
2947.82	158.5
2950	155
2952.18	154
2954.36	158.5
2956.53	153.5
2958.71	144.5
2960.88	136.5
2963.06	146
2965.23	140
2967.41	157
2969.58	141
2971.75	137
2973.92	128.5
2976.1	133
2978.26	139
2980.43	133
2982.6	129
2984.77	128.5
2986.94	115.5
2989.1	126
2991.27	129
2993.43	124
2995.6	113.5
2997.76	123
2999.92	114
3002.08	127
3004.24	132
3006.4	122.5
3008.56	119.5
3010.72	113.5
3012.88	119.5
3015.04	123
3017.19	108
3019.35	113
3021.51	116
3023.66	118
3025.81	122
3027.96	121
3030.12	118
3032.27	114.5
3034.42	111
3036.57	106
3038.72	108.5
3040.86	119
3043.01	117
3045.16	108.5
3047.3	111
3049.45	117
3051.6	111
3053.74	106
3055.88	121.5
3058.02	117.5
3060.17	112
3062.31	117.5
3064.45	118
3066.59	110
3068.72	118.5
3070.86	114.5
3073	120.5
3075.14	108.5
3077.27	112
3079.41	121
3081.54	119.5
3083.67	118
3085.81	110.5
3087.94	105
3090.07	107
3092.2	107.5
3094.33	109
3096.46	103
3098.59	113.5
3100.71	109
3102.84	111.5
3104.97	115
3107.09	115
3109.22	97
3111.34	110
3113.46	114
3115.59	111.5
3117.71	107
3119.83	124.5
3121.95	122.5
3124.07	109
3126.19	109.5
3128.31	100.5
3130.42	112.5
3132.54	104
3134.66	106
3136.77	103.5
3138.89	115
3141	110
3143.11	100
3145.22	106.5
3147.33	107.5
3149.45	103.5
3151.56	112.5
3153.66	118
3155.77	103.5
3157.88	105
3159.99	108
3162.09	108
3164.2	111.5
3166.3	110
3168.41	102
3170.51	108.5
3172.61	114
3174.72	109.5
3176.82	113
3178.92	117
3181.02	111.5
3183.12	114
3185.22	117.5
3187.31	109
3189.41	106.5
3191.51	105
3193.6	106.5
3195.7	104
3197.79	111
3199.88	105
